Extension,Load,Extension,Load,Extension,Load,Extension,Load,Extension,Load,Extension,Load,Extension,Load,Extension,Load,Extension,Load
(mm),(N),(mm),(N),(mm),(N),(mm),(N),(mm),(N),(mm),(N),(mm),(N),(mm),(N),(mm),(N)
1.02,0.5,4.2,0.51,2.24,0.5,1.94,0.51,0.22,0.51,0.54,0.5,0.75,0.5,0.07,0.51,0.16,0.51
1.16,0.59,4.34,0.49,2.27,0.48,2.21,0.56,0.25,0.63,0.63,0.58,0.84,0.53,0.16,1.09,0.25,0.49
1.33,0.7,4.52,0.51,2.3,0.53,2.57,0.65,0.29,0.57,0.74,0.65,0.94,0.59,0.27,1.98,0.35,0.46
1.51,0.82,4.69,0.47,2.34,0.52,2.92,0.77,0.32,0.64,0.84,0.75,1.05,0.67,0.37,3,0.46,0.48
1.68,0.95,4.86,0.53,2.37,0.52,3.26,0.83,0.35,0.8,0.94,0.87,1.15,0.72,0.47,4.06,0.56,0.48
1.85,1.05,5.03,0.56,2.4,0.52,3.6,0.92,0.39,0.75,1.04,0.97,1.25,0.8,0.57,5.14,0.66,0.5
2.01,1.19,5.2,0.54,2.44,0.52,3.93,0.99,0.42,0.82,1.14,0.99,1.35,0.91,0.68,6.24,0.76,0.51
2.18,1.28,5.36,0.55,2.47,0.55,4.27,1.05,0.45,1.03,1.24,0.12,1.45,0.92,0.78,7.39,0.86,0.52
2.35,1.36,5.53,0.58,2.5,0.57,4.6,1.14,0.49,1.25,1.34,0.22,1.55,1.04,0.88,8.45,0.96,0.55
2.51,1.48,5.7,0.6,2.54,0.57,4.93,1.22,0.52,1.45,1.44,0.3,1.65,1.11,0.98,9.52,1.06,0.53
2.68,1.57,5.86,0.6,2.57,0.59,5.27,1.31,0.55,1.69,1.54,0.39,1.75,1.17,1.08,10.63,1.16,0.54
2.85,1.68,6.03,0.59,2.6,0.57,5.6,1.38,0.59,1.97,1.64,0.48,1.85,1.2,1.18,11.67,1.26,0.54
3.02,1.85,6.2,0.61,2.64,0.58,5.93,1.45,0.62,2.28,1.74,0.57,1.95,1.29,1.28,12.54,1.36,0.57
3.18,1.93,6.36,0.64,2.67,0.61,6.27,1.53,0.65,2.52,1.84,0.64,2.05,1.35,1.38,13.34,1.46,0.56
3.35,2.03,6.53,0.64,2.7,0.62,6.6,1.62,0.69,2.81,1.94,0.69,2.15,1.44,1.48,14.24,1.56,0.56
3.52,2.16,6.7,0.67,2.74,0.62,6.93,1.68,0.72,3.11,2.04,0.81,2.25,1.53,1.58,15.13,1.66,0.58
3.68,2.22,6.86,0.66,2.77,0.62,7.27,1.72,0.75,3.44,2.14,0.96,2.35,1.57,1.68,15.96,1.76,0.55
3.85,2.34,7.03,0.68,2.8,0.65,7.6,1.83,0.79,3.71,2.24,1.07,2.45,1.61,1.78,16.84,1.86,0.6
4.02,2.46,7.2,0.71,2.84,0.64,7.93,1.86,0.82,4.03,2.34,1.21,2.55,1.72,1.88,17.7,1.96,0.58
4.18,2.58,7.36,0.68,2.87,0.67,8.27,1.95,0.85,4.32,2.44,1.37,2.65,1.77,1.98,18.55,2.06,0.62
4.35,2.66,7.53,0.7,2.9,0.65,8.6,2.03,0.89,4.67,2.54,1.49,2.75,1.83,2.08,19.44,2.16,0.61
4.52,2.76,7.7,0.73,2.94,0.67,8.93,2.05,0.92,4.91,2.64,1.6,2.85,1.92,2.18,20.28,2.26,0.62
4.68,2.88,7.86,0.72,2.97,0.68,9.27,2.12,0.95,5.26,2.74,1.73,2.95,1.99,2.28,21.15,2.36,0.58
4.85,2.98,8.03,0.77,3,0.67,9.6,2.21,0.99,5.55,2.84,1.87,3.05,2.09,2.38,21.99,2.46,0.6
5.02,3.1,8.2,0.73,3.04,0.68,9.93,2.25,1.02,5.89,2.94,2.01,3.15,2.12,2.48,22.89,2.56,0.6
5.18,3.21,8.36,0.74,3.07,0.73,10.27,2.3,1.05,6.2,3.04,2.19,3.25,2.19,2.58,23.74,2.66,0.65
5.35,3.28,8.53,0.76,3.1,0.72,10.6,2.35,1.09,6.5,3.14,2.28,3.35,2.27,2.68,24.56,2.76,0.63
5.52,3.37,8.7,0.78,3.14,0.73,10.93,2.43,1.12,6.83,3.24,2.44,3.45,2.37,2.78,25.41,2.86,0.66
5.68,3.47,8.86,0.76,3.17,0.72,11.27,2.47,1.15,7.19,3.34,2.61,3.55,2.43,2.88,26.28,2.96,0.65
5.85,3.57,9.03,0.78,3.2,0.73,11.6,2.55,1.19,7.43,3.44,2.72,3.65,2.53,2.98,27.14,3.06,0.65
6.02,3.7,9.2,0.82,3.24,0.7,11.93,2.59,1.22,7.82,3.54,2.9,3.75,2.59,3.08,27.98,3.16,0.68
6.18,3.73,9.36,0.78,3.27,0.74,12.27,2.63,1.25,8.12,3.64,3.03,3.85,2.69,3.18,28.78,3.26,0.65
6.35,3.86,9.53,0.83,3.3,0.76,12.6,2.71,1.29,8.46,3.74,3.2,3.95,2.79,3.28,29.58,3.36,0.65
6.52,3.97,9.7,0.85,3.34,0.79,12.93,2.78,1.32,8.77,3.84,3.33,4.05,2.85,3.38,30.4,3.46,0.68
6.68,4.06,9.86,0.79,3.37,0.78,13.27,2.83,1.35,9.11,3.94,3.5,4.15,2.94,3.48,31.21,3.56,0.69
6.85,4.13,10.03,0.87,3.4,0.81,13.6,2.86,1.39,9.39,4.04,3.64,4.25,3,3.58,31.96,3.66,0.7
7.02,4.23,10.2,0.85,3.44,0.81,13.93,2.91,1.42,9.75,4.14,3.76,4.35,3.09,3.68,32.74,3.76,0.73
7.18,4.31,10.36,0.88,3.47,0.82,14.27,2.95,1.45,10.06,4.24,3.96,4.45,3.17,3.78,33.57,3.86,0.72
7.35,4.43,10.53,0.88,3.5,0.85,14.6,2.99,1.49,10.4,4.34,4.13,4.55,3.26,3.88,34.43,3.96,0.71
7.52,4.51,10.7,0.91,3.54,0.88,14.93,3.05,1.52,10.72,4.44,4.27,4.65,3.34,3.98,35.17,4.06,0.72
7.68,4.59,10.86,0.89,3.57,0.83,15.27,3.11,1.55,11.07,4.54,4.45,4.75,3.4,4.08,35.96,4.16,0.73
7.85,4.66,11.03,0.88,3.6,0.87,15.6,3.13,1.59,11.36,4.64,4.58,4.85,3.5,4.18,36.71,4.26,0.71
8.02,4.74,11.2,0.88,3.64,0.87,15.93,3.18,1.62,11.71,4.74,4.75,4.95,3.63,4.28,37.5,4.36,0.74
8.18,4.85,11.36,0.93,3.67,0.88,16.27,3.25,1.65,12,4.84,4.86,5.05,3.71,4.38,38.22,4.46,0.73
8.35,4.93,11.53,0.94,3.7,0.88,16.6,3.3,1.69,12.35,4.94,5.03,5.15,3.79,4.48,38.99,4.56,0.74
8.52,5.02,11.7,0.92,3.74,0.92,16.93,3.36,1.72,12.63,5.04,5.14,5.25,3.83,4.58,39.73,4.66,0.75
8.68,5.09,11.86,0.94,3.77,0.91,17.27,3.36,1.75,13.02,5.14,5.32,5.35,3.96,4.68,40.53,4.76,0.73
8.85,5.17,12.03,0.96,3.8,0.91,17.6,3.44,1.79,13.33,5.24,5.47,5.45,4.03,4.78,41.31,4.86,0.75
9.02,5.26,12.2,0.96,3.84,0.92,17.93,3.45,1.82,13.67,5.34,5.59,5.55,4.15,4.88,42.04,4.96,0.76
9.18,5.34,12.36,0.97,3.87,0.95,18.27,3.52,1.85,13.95,5.44,5.67,5.65,4.23,4.98,42.77,5.06,0.77
9.35,5.4,12.53,0.97,3.9,0.95,18.6,3.58,1.89,14.31,5.54,5.79,5.75,4.32,5.08,43.59,5.16,0.78
9.52,5.48,12.7,0.94,3.94,0.92,18.93,3.6,1.92,14.6,5.64,5.87,5.85,4.41,5.18,44.34,5.26,0.78
9.68,5.57,12.86,0.98,3.97,0.94,19.27,3.65,1.95,14.93,5.74,5.97,5.95,4.53,5.28,45.11,5.36,0.79
9.85,5.61,13.03,1.03,4,1,19.6,3.7,1.98,15.25,5.84,6.09,6.05,4.63,5.38,45.86,5.46,0.79
10.02,5.67,13.2,1.02,4.04,0.98,19.93,3.73,2.02,15.62,5.94,6.17,6.15,4.69,5.48,46.59,5.56,0.79
10.18,5.78,13.36,1.02,4.07,0.97,20.27,3.79,2.05,15.91,6.04,6.25,6.25,4.84,5.58,47.26,5.66,0.83
10.35,5.82,13.53,0.99,4.1,1.02,20.6,3.86,2.09,16.24,6.14,6.35,6.35,4.9,5.68,47.93,5.76,0.79
10.51,5.91,13.7,1,4.14,1.03,20.93,3.88,2.12,16.52,6.24,6.43,6.45,5.02,5.78,48.63,5.86,0.83
10.68,5.95,13.86,1.02,4.17,1.04,21.27,3.9,2.15,16.87,6.34,6.53,6.55,5.11,5.88,49.35,5.96,0.82
10.85,6.03,14.03,1.02,4.2,1.03,21.6,3.96,2.19,17.23,6.44,6.59,6.65,5.2,5.98,50.05,6.06,0.82
11.02,6.13,14.2,1.05,4.24,1.04,21.93,4,2.22,17.55,6.54,6.68,6.75,5.31,6.08,50.74,6.16,0.83
11.18,6.17,14.36,1.03,4.27,1.06,22.27,4,2.25,17.83,6.64,6.74,6.85,5.42,6.18,51.47,6.26,0.81
11.35,6.23,14.53,1.05,4.3,1.06,22.6,4.07,2.29,18.18,6.74,6.83,6.95,5.52,6.28,52.18,6.36,0.86
11.52,6.32,14.7,1.07,4.34,1.11,22.93,4.13,2.32,18.48,6.84,6.91,7.05,5.66,6.38,52.9,6.46,0.85
11.68,6.41,14.86,1.06,4.37,1.09,23.27,4.15,2.35,18.84,6.94,7.01,7.15,5.75,6.48,53.59,6.56,0.85
11.85,6.41,15.03,1.05,4.4,1.09,23.6,4.19,2.39,19.12,7.04,7.07,7.25,5.85,6.58,54.28,6.66,0.86
12.02,6.48,15.2,1.07,4.44,1.12,23.93,4.21,2.42,19.43,7.14,7.11,7.35,5.97,6.68,54.99,6.76,0.84
12.18,6.59,15.36,1.08,4.47,1.13,24.27,4.24,2.45,19.8,7.24,7.19,7.45,6.05,6.78,55.66,6.86,0.87
12.35,6.62,15.53,1.13,4.5,1.14,24.6,4.29,2.49,20.13,7.34,7.28,7.55,6.16,6.88,56.37,6.96,0.87
12.52,6.69,15.7,1.08,4.54,1.15,24.93,4.32,2.52,20.42,7.44,7.37,7.65,6.3,6.98,57.05,7.06,0.88
12.68,6.74,15.86,1.1,4.57,1.15,25.27,4.37,2.55,20.78,7.54,7.43,7.75,6.4,7.08,57.75,7.16,0.88
12.85,6.79,16.03,1.08,4.6,1.14,25.6,4.37,2.59,21.11,7.64,7.49,7.85,6.51,7.18,58.38,7.26,0.86
13.02,6.84,16.2,1.1,4.64,1.15,25.93,4.42,2.62,21.42,7.74,7.55,7.95,6.61,7.28,59.01,7.36,0.86
13.18,6.93,16.36,1.13,4.67,1.19,26.27,4.46,2.65,21.74,7.84,7.62,8.05,6.72,7.38,59.63,7.46,0.91
13.35,6.99,16.53,1.15,4.7,1.2,26.6,4.5,2.69,22.11,7.94,7.72,8.15,6.83,7.48,60.29,7.56,0.91
13.52,7.05,16.7,1.14,4.74,1.22,26.93,4.53,2.72,22.39,8.04,7.76,8.25,6.95,7.58,60.94,7.66,0.92
13.68,7.06,16.86,1.14,4.77,1.24,27.27,4.54,2.75,22.73,8.14,7.82,8.35,7.02,7.68,61.63,7.76,0.9
13.85,7.18,17.03,1.16,4.8,1.25,27.6,4.59,2.78,23.06,8.24,7.91,8.45,7.15,7.78,62.19,7.86,0.93
14.02,7.23,17.2,1.15,4.84,1.24,27.93,4.62,2.82,23.4,8.34,7.93,8.55,7.24,7.88,62.84,7.96,0.89
14.18,7.28,17.36,1.16,4.87,1.26,28.27,4.68,2.85,23.71,8.44,8.02,8.65,7.37,7.98,63.44,8.06,0.93
14.35,7.35,17.53,1.17,4.9,1.28,28.6,4.72,2.88,24.11,8.54,8.12,8.75,7.51,8.08,64.1,8.16,0.9
14.52,7.37,17.7,1.15,4.94,1.26,28.93,4.72,2.92,24.36,8.64,8.17,8.85,7.57,8.18,64.74,8.26,0.93
14.68,7.47,17.86,1.18,4.97,1.27,29.27,4.79,2.95,24.74,8.74,8.26,8.95,7.66,8.28,65.37,8.36,0.95
14.85,7.5,18.03,1.18,5,1.3,29.6,4.81,2.99,25.06,8.84,8.32,9.05,7.8,8.38,66.01,8.46,0.95
15.02,7.53,18.2,1.21,5.04,1.31,29.93,4.85,3.02,25.39,8.94,8.33,9.15,7.94,8.48,66.62,8.56,0.89
15.18,7.58,18.36,1.23,5.07,1.34,30.27,4.87,3.05,25.69,9.04,8.41,9.25,8.07,8.58,67.27,8.66,0.94
15.35,7.63,18.53,1.17,5.1,1.33,30.6,4.87,3.09,26.06,9.14,8.47,9.35,8.14,8.68,67.92,8.76,0.93
15.52,7.68,18.7,1.23,5.14,1.35,30.93,4.93,3.12,26.36,9.24,8.56,9.45,8.3,8.78,68.57,8.86,0.96
15.68,7.74,18.86,1.23,5.17,1.35,31.27,4.97,3.15,26.7,9.34,8.61,9.55,8.38,8.88,69.24,8.96,0.94
15.85,7.79,19.03,1.21,5.2,1.39,31.6,4.99,3.18,27.01,9.44,8.67,9.65,8.52,8.98,69.87,9.06,0.99
16.02,7.84,19.2,1.23,5.24,1.36,31.93,5,3.22,27.4,9.54,8.77,9.75,8.63,9.08,70.52,9.16,0.98
16.18,7.91,19.36,1.22,5.27,1.38,32.27,5.01,3.25,27.72,9.64,8.8,9.85,8.76,9.18,71.2,9.26,0.97
16.35,7.96,19.53,1.27,5.3,1.38,32.6,5.1,3.29,28.04,9.74,8.91,9.95,8.87,9.28,71.81,9.36,0.98
16.52,8.01,19.7,1.23,5.34,1.42,32.93,5.14,3.32,28.33,9.84,8.91,10.05,8.98,9.38,72.44,9.46,1.01
16.68,8.07,19.86,1.24,5.37,1.4,33.27,5.16,3.35,28.68,9.94,8.99,10.15,9.08,9.48,73.05,9.56,1.01
16.85,8.11,20.03,1.27,5.4,1.45,33.6,5.18,3.39,29,10.04,9.04,10.25,9.21,9.58,73.69,9.66,1.01
17.02,8.13,20.2,1.25,5.44,1.44,33.93,5.17,3.42,29.3,10.14,9.12,10.35,9.31,9.68,74.31,9.76,1
17.18,8.21,20.36,1.26,5.47,1.47,34.27,5.24,3.45,29.61,10.24,9.17,10.45,9.43,9.78,74.87,9.86,1.02
17.35,8.24,20.53,1.29,5.5,1.46,34.6,5.27,3.49,30.01,10.34,9.23,10.55,9.57,9.88,75.42,9.96,1
17.52,8.26,20.7,1.29,5.54,1.49,34.93,5.31,3.52,30.3,10.44,9.31,10.65,9.68,9.98,76,10.06,1.04
17.68,8.34,20.86,1.28,5.57,1.49,35.27,5.31,3.55,30.64,10.54,9.36,10.75,9.78,10.08,76.57,10.16,1.03
17.85,8.38,21.03,1.29,5.6,1.49,35.6,5.35,3.59,30.93,10.64,9.42,10.85,9.88,10.18,77.24,10.26,1.01
18.02,8.4,21.2,1.31,5.64,1.48,35.93,5.38,3.62,31.29,10.74,9.49,10.95,10.02,10.28,77.88,10.36,1.06
18.18,8.48,21.36,1.31,5.67,1.54,36.27,5.41,3.65,31.59,10.84,9.59,11.05,10.17,10.38,78.5,10.46,1.06
18.35,8.48,21.53,1.31,5.7,1.51,36.6,5.44,3.68,31.92,10.94,9.66,11.15,10.27,10.48,79.07,10.56,1.03
18.52,8.57,21.7,1.3,5.74,1.56,36.93,5.47,3.72,32.19,11.04,9.67,11.25,10.42,10.58,79.64,10.66,1.05
18.68,8.58,21.86,1.3,5.77,1.54,37.27,5.5,3.75,32.55,11.14,9.75,11.35,10.5,10.68,80.2,10.76,1.05
18.85,8.65,22.03,1.33,5.8,1.58,37.6,5.53,3.79,32.86,11.24,9.81,11.45,10.62,10.78,80.73,10.86,1.07
19.02,8.68,22.2,1.33,5.84,1.57,37.93,5.55,3.82,33.15,11.34,9.87,11.55,10.7,10.88,81.26,10.96,1.07
19.18,8.74,22.36,1.36,5.87,1.57,38.27,5.58,3.85,33.46,11.44,9.96,11.65,10.89,10.98,81.82,11.06,1.05
19.35,8.79,22.53,1.31,5.9,1.58,38.6,5.56,3.89,33.85,11.54,10.01,11.75,10.99,11.08,82.41,11.16,1.07
19.52,8.79,22.7,1.35,5.94,1.6,38.93,5.63,3.92,34.14,11.64,10.07,11.85,11.08,11.18,82.98,11.26,1.07
19.68,8.85,22.86,1.38,5.97,1.61,39.27,5.65,3.95,34.43,11.74,10.16,11.95,11.2,11.28,83.49,11.36,1.06
19.85,8.9,23.03,1.39,6,1.64,39.6,5.7,3.98,34.71,11.84,10.21,12.05,11.3,11.38,84.03,11.46,1.1
20.02,8.94,23.2,1.38,6.04,1.62,39.93,5.71,4.02,35.04,11.94,10.27,12.15,11.49,11.48,84.56,11.56,1.1
20.18,9,23.36,1.39,6.07,1.67,40.27,5.76,4.05,35.34,12.04,10.32,12.25,11.56,11.58,85.07,11.66,1.11
20.35,9.01,23.53,1.34,6.1,1.67,40.6,5.77,4.08,35.61,12.14,10.37,12.35,11.62,11.68,85.58,11.76,1.08
20.52,9.07,23.7,1.4,6.14,1.67,40.93,5.81,4.12,35.88,12.24,10.46,12.45,11.79,11.78,86.07,11.86,1.12
20.68,9.12,23.86,1.4,6.17,1.68,41.27,5.84,4.15,36.24,12.34,10.55,12.55,11.9,11.88,86.63,11.96,1.1
20.85,9.13,24.03,1.41,6.2,1.7,41.6,5.88,4.19,36.53,12.44,10.57,12.65,12.02,11.98,87.25,12.06,1.12
21.02,9.18,24.2,1.36,6.24,1.7,41.93,5.9,4.22,36.82,12.54,10.67,12.75,12.12,12.08,87.76,12.16,1.11
21.18,9.24,24.36,1.38,6.27,1.69,42.27,5.89,4.25,37.09,12.64,10.7,12.85,12.21,12.18,88.32,12.26,1.11
21.35,9.24,24.53,1.4,6.3,1.7,42.6,5.95,4.29,37.37,12.74,10.77,12.95,12.36,12.28,88.9,12.36,1.15
21.52,9.32,24.7,1.45,6.34,1.75,42.93,5.95,4.32,37.69,12.84,10.82,13.05,12.48,12.38,89.44,12.46,1.13
21.68,9.35,24.86,1.39,6.37,1.74,43.27,6.02,4.35,37.97,12.94,10.88,13.15,12.58,12.48,89.95,12.56,1.12
21.85,9.4,25.03,1.43,6.4,1.8,43.6,6.04,4.38,38.23,13.04,10.91,13.25,12.69,12.58,90.5,12.66,1.15
22.02,9.43,25.2,1.43,6.44,1.78,43.93,6,4.42,38.54,13.14,10.98,13.35,12.79,12.68,91.01,12.76,1.13
22.18,9.47,25.36,1.42,6.47,1.8,44.27,6.08,4.45,38.82,13.24,11.07,13.45,12.9,12.78,91.48,12.86,1.15
22.35,9.51,25.53,1.46,6.5,1.79,44.6,6.1,4.49,39.09,13.34,11.11,13.55,13.02,12.88,92,12.96,1.14
22.52,9.54,25.7,1.46,6.54,1.82,44.93,6.13,4.52,39.33,13.44,11.18,13.65,13.15,12.98,92.48,13.06,1.15
22.68,9.61,25.86,1.43,6.57,1.82,45.27,6.16,4.55,39.65,13.54,11.25,13.75,13.28,13.08,93.02,13.16,1.18
22.85,9.58,26.03,1.41,6.6,1.84,45.6,6.13,4.59,39.91,13.64,11.27,13.85,13.4,13.18,93.6,13.26,1.15
23.02,9.69,26.2,1.44,6.64,1.89,45.93,6.21,4.62,40.18,13.74,11.35,13.95,13.47,13.28,94.11,13.36,1.15
23.18,9.69,26.36,1.49,6.67,1.86,46.27,6.24,4.65,40.41,13.84,11.43,14.05,13.59,13.38,94.66,13.46,1.17
23.35,9.75,26.53,1.47,6.7,1.88,46.6,6.25,4.69,40.7,13.94,11.48,14.15,13.74,13.48,95.12,13.56,1.17
23.52,9.78,26.7,1.48,6.74,1.91,46.93,6.29,4.72,40.95,14.04,11.54,14.25,13.85,13.58,95.64,13.66,1.18
23.68,9.82,26.86,1.46,6.77,1.9,47.27,6.29,4.75,41.22,14.14,11.61,14.35,13.95,13.68,96.17,13.76,1.21
23.85,9.83,27.03,1.5,6.8,1.94,47.6,6.34,4.78,41.5,14.24,11.7,14.45,14.1,13.78,96.66,13.86,1.17
24.02,9.87,27.2,1.49,6.84,1.92,47.93,6.34,4.82,41.79,14.34,11.71,14.55,14.18,13.88,97.19,13.96,1.21
24.18,9.92,27.36,1.48,6.87,1.93,48.27,6.41,4.85,42.05,14.44,11.81,14.65,14.31,13.98,97.79,14.06,1.21
24.35,9.97,27.53,1.49,6.9,1.93,48.6,6.41,4.89,42.28,14.54,11.84,14.75,14.39,14.08,98.35,14.16,1.23
24.52,9.95,27.7,1.52,6.94,1.94,48.93,6.42,4.92,42.57,14.64,11.9,14.85,14.5,14.18,98.9,14.26,1.2
24.68,10.03,27.86,1.52,6.97,1.95,49.27,6.43,4.95,42.86,14.74,11.98,14.95,14.62,14.28,99.43,14.36,1.18
24.85,10.06,28.03,1.53,7,2,49.6,6.49,4.99,43.12,14.84,12.03,15.05,14.73,14.38,99.96,14.46,1.22
25.02,10.06,28.2,1.48,7.04,1.98,49.93,6.54,5.02,43.38,14.94,12.1,15.15,14.86,14.48,100.43,14.56,1.23
25.18,10.15,28.36,1.53,7.07,2.02,50.27,6.54,5.05,43.61,15.04,12.13,15.25,15,14.58,100.93,14.66,1.25
25.35,10.13,28.53,1.52,7.1,2.01,50.6,6.5,5.09,43.91,15.14,12.19,15.35,15.08,14.68,101.46,14.76,1.24
25.52,10.19,28.7,1.54,7.14,2.05,50.93,6.59,5.12,44.14,15.24,12.25,15.45,15.22,14.78,101.96,14.86,1.22
25.68,10.22,28.86,1.53,7.17,2.07,51.27,6.62,5.15,44.43,15.34,12.34,15.55,15.31,14.88,102.42,14.96,1.23
25.85,10.26,29.03,1.57,7.2,2.07,51.6,6.65,5.19,44.67,15.44,12.4,15.65,15.43,14.98,102.95,15.06,1.26
26.02,10.3,29.2,1.55,7.24,2.03,51.93,6.67,5.22,44.98,15.54,12.42,15.75,15.55,15.08,103.42,15.16,1.26
26.18,10.34,29.36,1.54,7.27,2.07,52.27,6.65,5.25,45.23,15.64,12.51,15.85,15.64,15.18,103.96,15.26,1.25
26.35,10.35,29.53,1.58,7.3,2.08,52.6,6.72,5.29,45.49,15.74,12.56,15.95,15.79,15.28,104.38,15.36,1.25
26.52,10.41,29.7,1.56,7.34,2.11,52.93,6.71,5.32,45.71,15.84,12.63,16.05,15.93,15.38,104.85,15.46,1.3
26.68,10.45,29.86,1.59,7.37,2.11,53.27,6.77,5.35,46.02,15.94,12.7,16.15,16.03,15.48,105.37,15.56,1.27
26.85,10.46,30.03,1.56,7.4,2.12,53.6,6.77,5.39,46.29,16.04,12.76,16.25,16.15,15.58,105.87,15.66,1.27
27.02,10.49,30.2,1.56,7.44,2.15,53.93,6.81,5.42,46.55,16.14,12.78,16.35,16.26,15.68,106.35,15.76,1.26
27.18,10.54,30.36,1.61,7.47,2.18,54.27,6.83,5.45,46.82,16.24,12.85,16.45,16.38,15.78,106.81,15.86,1.29
27.35,10.57,30.53,1.58,7.5,2.16,54.6,6.84,5.49,47.11,16.34,12.95,16.55,16.51,15.88,107.32,15.96,1.33
27.52,10.59,30.7,1.6,7.54,2.17,54.93,6.89,5.52,47.38,16.44,12.96,16.65,16.62,15.98,107.76,16.06,1.3
27.68,10.61,30.86,1.6,7.57,2.18,55.27,6.9,5.55,47.68,16.54,13.04,16.75,16.75,16.08,108.23,16.16,1.31
27.85,10.66,31.03,1.61,7.6,2.23,55.6,6.91,5.58,47.89,16.64,13.08,16.85,16.83,16.18,108.73,16.26,1.29
28.02,10.69,31.2,1.63,7.64,2.2,55.93,6.96,5.62,48.18,16.74,13.18,16.95,16.98,16.28,109.21,16.36,1.31
28.18,10.77,31.36,1.63,7.67,2.22,56.27,6.98,5.65,48.44,16.84,13.24,17.05,17.09,16.38,109.69,16.46,1.31
28.35,10.77,31.53,1.62,7.7,2.22,56.6,7.01,5.69,48.74,16.94,13.29,17.15,17.2,16.48,110.13,16.56,1.3
28.51,10.82,31.7,1.63,7.74,2.24,56.93,7.05,5.72,48.99,17.04,13.33,17.25,17.31,16.58,110.59,16.66,1.34
28.68,10.81,31.86,1.61,7.77,2.28,57.27,7.04,5.75,49.27,17.14,13.37,17.35,17.43,16.68,111.05,16.76,1.33
28.85,10.85,32.03,1.65,7.8,2.3,57.6,7.07,5.79,49.53,17.24,13.47,17.45,17.57,16.78,111.54,16.86,1.34
29.02,10.92,32.2,1.65,7.84,2.26,57.93,7.13,5.82,49.83,17.34,13.51,17.55,17.66,16.88,111.92,16.96,1.32
29.18,10.92,32.36,1.64,7.87,2.34,58.27,7.14,5.85,50.08,17.44,13.56,17.65,17.8,16.98,112.4,17.06,1.35
29.35,10.94,32.53,1.65,7.9,2.34,58.6,7.15,5.89,50.39,17.54,13.64,17.75,17.93,17.08,112.85,17.16,1.33
29.52,10.98,32.7,1.65,7.94,2.33,58.93,7.16,5.92,50.61,17.64,13.66,17.85,18.03,17.18,113.32,17.26,1.36
29.68,11.02,32.86,1.66,7.97,2.34,59.27,7.2,5.95,50.86,17.74,13.71,17.95,18.14,17.28,113.73,17.36,1.38
29.85,11.06,33.03,1.68,8,2.36,59.6,7.25,5.98,51.14,17.84,13.82,18.05,18.29,17.38,114.16,17.46,1.36
30.02,11.09,33.2,1.64,8.04,2.38,59.93,7.25,6.02,51.46,17.94,13.88,18.15,18.4,17.48,114.61,17.56,1.4
30.18,11.11,33.36,1.68,8.07,2.37,60.27,7.27,6.05,51.73,18.04,13.9,18.25,18.53,17.58,115.04,17.66,1.37
30.35,11.13,33.53,1.65,8.1,2.42,60.6,7.3,6.09,52.02,18.14,13.94,18.35,18.67,17.68,115.51,17.76,1.35
30.51,11.21,33.7,1.69,8.14,2.44,60.93,7.34,6.12,52.23,18.24,14.04,18.45,18.82,17.78,115.91,17.86,1.39
30.68,11.25,33.86,1.69,8.17,2.43,61.27,7.38,6.15,52.58,18.34,14.09,18.55,18.92,17.88,116.3,17.96,1.35
30.85,11.25,34.03,1.68,8.2,2.44,61.6,7.38,6.19,52.81,18.44,14.12,18.65,19.03,17.98,116.69,18.06,1.4
31.02,11.27,34.2,1.74,8.24,2.44,61.93,7.4,6.22,53.07,18.54,14.16,18.75,19.13,18.08,117.07,18.16,1.38
31.18,11.29,34.36,1.67,8.27,2.44,62.27,7.4,6.25,53.37,18.64,14.24,18.85,19.27,18.18,117.54,18.26,1.38
31.35,11.34,34.53,1.71,8.3,2.47,62.6,7.45,6.29,53.65,18.74,14.28,18.95,19.43,18.28,117.91,18.36,1.39
31.52,11.39,34.7,1.71,8.34,2.51,62.93,7.45,6.32,53.95,18.84,14.34,19.05,19.53,18.38,118.33,18.46,1.41
31.68,11.4,34.86,1.73,8.37,2.47,63.27,7.52,6.35,54.24,18.94,14.41,19.15,19.67,18.48,118.71,18.56,1.43
31.85,11.42,35.03,1.72,8.4,2.51,63.6,7.54,6.38,54.49,19.04,14.45,19.25,19.79,18.58,119.1,18.66,1.44
32.02,11.42,35.2,1.71,8.44,2.54,63.93,7.55,6.42,54.82,19.14,14.5,19.35,19.89,18.68,119.56,18.76,1.42
32.18,11.5,35.36,1.71,8.47,2.57,64.27,7.61,6.45,55.1,19.24,14.58,19.45,20.05,18.78,119.97,18.86,1.42
32.35,11.54,35.53,1.73,8.5,2.52,64.6,7.62,6.49,55.39,19.34,14.64,19.55,20.17,18.88,120.33,18.96,1.43
32.51,11.56,35.7,1.74,8.54,2.56,64.93,7.62,6.52,55.61,19.44,14.67,19.65,20.33,18.98,120.72,19.06,1.45
32.68,11.58,35.86,1.73,8.57,2.56,65.27,7.65,6.55,55.95,19.54,14.72,19.75,20.41,19.08,121.12,19.16,1.42
32.85,11.6,36.03,1.75,8.6,2.62,65.6,7.63,6.59,56.25,19.64,14.76,19.85,20.54,19.18,121.52,19.26,1.45
33.02,11.66,36.2,1.73,8.64,2.59,65.93,7.72,6.62,56.51,19.74,14.82,19.95,20.66,19.28,121.88,19.36,1.45
33.18,11.68,36.36,1.74,8.67,2.63,66.27,7.73,6.65,56.81,19.84,14.86,20.05,20.79,19.38,122.31,19.46,1.47
33.35,11.67,36.53,1.78,8.7,2.63,66.6,7.74,6.69,57.12,19.94,14.89,20.15,20.96,19.48,122.7,19.56,1.44
33.52,11.73,36.7,1.75,8.74,2.64,66.93,7.77,6.72,57.41,20.04,14.48,20.25,21.08,19.58,123.1,19.66,1.49
33.68,11.76,36.86,1.75,8.77,2.67,67.27,7.75,6.75,57.74,20.14,14.62,20.35,21.19,19.68,123.46,19.76,1.47
33.85,11.75,37.03,1.8,8.8,2.71,67.6,7.82,6.78,57.97,20.24,14.73,20.45,21.33,19.78,123.8,19.86,1.5
34.02,11.84,37.2,1.79,8.84,2.68,67.93,7.84,6.82,58.29,20.34,14.83,20.55,21.41,19.88,124.15,19.96,1.5
34.18,11.82,37.36,1.8,8.87,2.7,68.27,7.91,6.85,58.62,20.44,14.89,20.65,21.6,19.98,124.51,20.06,1.48
34.35,11.86,37.53,1.8,8.9,2.71,68.6,7.9,6.89,58.86,20.54,14.94,20.75,21.68,20.08,124.87,20.16,1.47
34.51,11.89,37.7,1.78,8.94,2.75,68.93,7.9,6.92,59.15,20.64,14.97,20.85,21.84,20.18,125.18,20.26,1.49
34.68,11.92,37.86,1.79,8.97,2.74,69.27,7.98,6.95,59.45,20.74,15.06,20.95,21.93,20.28,125.53,20.36,1.51
34.85,11.96,38.03,1.79,9,2.75,69.6,7.97,6.99,59.75,20.84,15.13,21.05,22.1,20.38,125.84,20.46,1.49
35.02,11.99,38.2,1.83,9.04,2.78,69.93,7.99,7.02,60.02,20.94,15.18,21.15,22.22,20.48,126.19,20.56,1.5
35.18,12.01,38.36,1.81,9.07,2.79,70.27,8.06,7.05,60.32,21.04,15.22,21.25,22.37,20.58,126.47,20.66,1.48
